Frame, Time (ms)
    1,     0.000
    2,    20.899
    3,    43.673
    4,   103.039
    5,   146.178
    6,   158.589
    7,   177.537
    8,   199.590
    9,   222.022
   10,   233.553
   11,   245.957
   12,   258.212
   13,   277.919
   14,   300.052
   15,   322.928
   16,   344.909
   17,   367.208
   18,   389.485
   19,   413.196
   20,   434.503
   21,   456.612
   22,   478.680
   23,   501.248
   24,   523.692
   25,   546.335
   26,   568.089
   27,   590.762
   28,   612.753
   29,   635.305
   30,   657.815
   31,   679.831
   32,   702.178
   33,   724.886
   34,   746.747
   35,   769.228
   36,   791.672
   37,   813.868
   38,   836.201
   39,   847.937
   40,   860.140
   41,   872.000
   42,   892.186
   43,   914.675
   44,   937.027
   45,   959.286
   46,   981.643
   47,  1004.090
   48,  1026.136
   49,  1048.445
   50,  1070.876
   51,  1093.307
   52,  1115.542
   53,  1137.808
   54,  1160.299
   55,  1182.852
   56,  1204.933
   57,  1227.410
   58,  1249.491
   59,  1272.108
   60,  1294.235
   61,  1316.720
   62,  1339.215
   63,  1361.471
   64,  1372.684
   65,  1384.065
   66,  1395.813
   67,  1407.667
   68,  1419.321
   69,  1439.402
   70,  1461.942
   71,  1484.460
   72,  1506.767
   73,  1528.872
   74,  1551.312
   75,  1573.716
   76,  1584.586
   77,  1596.238
   78,  1607.902
   79,  1619.648
   80,  1631.343
   81,  1652.125
   82,  1674.309
   83,  1696.447
   84,  1718.809
   85,  1741.529
   86,  1752.512
   87,  1763.820
   88,  1775.547
   89,  1787.037
   90,  1808.259
   91,  1830.331
   92,  1852.868
   93,  1874.947
   94,  1886.145
   95,  1897.766
   96,  1909.520
   97,  1921.126
   98,  1932.782
   99,  1953.663
  100,  1975.602
  101,  1997.898
  102,  2020.455
  103,  2042.615
  104,  2065.134
  105,  2087.254
  106,  2109.945
  107,  2131.807
  108,  2154.224
  109,  2176.704
  110,  2198.879
  111,  2221.432
  112,  2243.740
  113,  2266.067
  114,  2288.210
  115,  2310.575
  116,  2333.332
  117,  2355.255
  118,  2366.594
  119,  2377.950
  120,  2389.494
  121,  2401.259
  122,  2412.939
  123,  2433.491
  124,  2456.046
  125,  2478.616
  126,  2500.837
  127,  2522.964
  128,  2545.359
  129,  2568.000
  130,  2578.736
  131,  2590.319
  132,  2601.760
  133,  2613.514
  134,  2634.907
  135,  2656.979
  136,  2679.239
  137,  2701.581
  138,  2712.767
  139,  2724.021
  140,  2735.341
  141,  2746.894
  142,  2758.445
  143,  2779.809
  144,  2802.208
  145,  2813.259
  146,  2825.046
  147,  2835.902
  148,  2847.579
  149,  2859.169
  150,  2870.564
  151,  2891.654
  152,  2913.996
  153,  2936.186
  154,  2958.518
  155,  2980.993
  156,  2992.321
  157,  3003.352
  158,  3014.988
  159,  3036.760
  160,  3059.082
  161,  3081.432
  162,  3103.746
  163,  3115.107
  164,  3126.260
  165,  3137.662
  166,  3149.229
  167,  3160.830
  168,  3182.106
  169,  3204.255
  170,  3215.422
  171,  3226.622
  172,  3237.921
  173,  3248.905
  174,  3260.450
  175,  3271.677
  176,  3283.129
  177,  3304.741
  178,  3327.152
  179,  3349.543
  180,  3371.906
  181,  3383.040
  182,  3394.390
  183,  3405.956
  184,  3417.587
  185,  3429.323
  186,  3449.930
  187,  3472.934
  188,  3494.723
  189,  3517.039
  190,  3539.413
  191,  3561.656
  192,  3573.309
  193,  3584.239
  194,  3596.010
  195,  3607.715
  196,  3619.394
  197,  3639.787
  198,  3662.304
  199,  3684.455
  200,  3707.035
  201,  3718.112
  202,  3729.483
  203,  3741.056
  204,  3752.524
  205,  3764.158
  206,  3785.325
  207,  3807.350
  208,  3829.775
  209,  3852.195
  210,  3874.519
  211,  3885.792
  212,  3896.982
  213,  3908.418
  214,  3919.920
  215,  3931.526
  216,  3943.066
  217,  3964.016
  218,  3986.218
  219,  4008.649
  220,  4031.162
  221,  4042.338
  222,  4053.419
  223,  4064.826
  224,  4076.405
  225,  4087.828
  226,  4109.154
  227,  4131.957
  228,  4153.962
  229,  4176.103
  230,  4198.410
  231,  4220.849
  232,  4231.913
  233,  4243.543
  234,  4255.201
  235,  4267.041
  236,  4287.676
  237,  4310.211
  238,  4333.294
  239,  4354.893
  240,  4366.243
  241,  4378.219
  242,  4390.076
  243,  4410.815
  244,  4433.147
  245,  4455.296
  246,  4477.683
  247,  4499.938
  248,  4522.617
  249,  4544.581
  250,  4567.050
  251,  4589.391
  252,  4600.588
  253,  4612.513
  254,  4624.377
  255,  4635.974
  256,  4656.387
  257,  4678.796
  258,  4701.019
  259,  4723.515
  260,  4745.858
  261,  4757.128
  262,  4768.847
  263,  4780.612
  264,  4801.624
  265,  4824.146
  266,  4846.224
  267,  4868.718
  268,  4891.102
  269,  4913.324
  270,  4924.330
  271,  4936.141
  272,  4948.024
  273,  4959.830
  274,  4971.548
  275,  4991.879
  276,  5013.999
  277,  5036.094
  278,  5058.411
  279,  5081.182
  280,  5103.690
  281,  5114.815
  282,  5126.715
  283,  5138.491
  284,  5159.585
  285,  5181.344
  286,  5203.854
  287,  5226.385
  288,  5248.340
  289,  5270.690
  290,  5292.926
  291,  5315.234
  292,  5327.033
  293,  5338.115
  294,  5350.113
  295,  5371.160
  296,  5394.065
  297,  5416.323
  298,  5438.223
  299,  5460.896
  300,  5483.046
  301,  5505.257
  302,  5516.543
  303,  5528.093
  304,  5539.661
  305,  5551.439
  306,  5563.233
  307,  5583.658
  308,  5605.840
  309,  5628.027
  310,  5650.601
  311,  5661.663
  312,  5673.197
  313,  5684.972
  314,  5696.827
  315,  5708.612
  316,  5728.640
  317,  5751.064
  318,  5773.368
  319,  5795.747
  320,  5806.970
  321,  5818.391
  322,  5830.086
  323,  5841.781
  324,  5853.353
  325,  5874.074
  326,  5896.301
  327,  5918.701
  328,  5941.007
  329,  5952.154
  330,  5963.559
  331,  5975.197
  332,  5986.722
  333,  5998.276
  334,  6019.069
  335,  6041.581
  336,  6063.732
  337,  6085.929
  338,  6097.242
  339,  6108.388
  340,  6119.961
  341,  6131.555
  342,  6143.104
  343,  6154.473
  344,  6175.598
  345,  6197.923
  346,  6220.266
  347,  6242.664
  348,  6253.840
  349,  6264.811
  350,  6276.420
  351,  6287.873
  352,  6299.446
  353,  6320.796
  354,  6343.040
  355,  6365.224
  356,  6387.604
  357,  6398.649
  358,  6410.139
  359,  6421.367
  360,  6432.902
  361,  6444.458
  362,  6466.347
  363,  6488.124
  364,  6510.472
  365,  6532.971
  366,  6555.264
  367,  6566.495
  368,  6588.719
  369,  6599.937
  370,  6611.524
  371,  6622.959
  372,  6634.522
  373,  6646.201
  374,  6666.886
  375,  6689.319
  376,  6711.627
  377,  6734.703
  378,  6745.527
  379,  6757.218
  380,  6768.745
  381,  6780.419
  382,  6800.936
  383,  6823.483
  384,  6845.843
  385,  6868.429
  386,  6879.353
  387,  6891.090
  388,  6902.625
  389,  6923.934
  390,  6946.262
  391,  6968.409
  392,  6991.070
  393,  7002.106
  394,  7013.635
  395,  7025.364
  396,  7036.968
  397,  7048.721
  398,  7069.025
  399,  7091.553
  400,  7113.629
  401,  7136.092
  402,  7147.328
  403,  7158.871
  404,  7170.453
  405,  7182.189
  406,  7193.933
  407,  7214.247
  408,  7236.652
  409,  7258.835
  410,  7281.243
  411,  7303.805
  412,  7314.827
  413,  7326.572
  414,  7338.216
  415,  7350.497
  416,  7362.542
  417,  7381.860
  418,  7404.249
  419,  7426.469
  420,  7448.800
  421,  7471.466
  422,  7482.496
  423,  7494.363
  424,  7506.101
  425,  7526.985
  426,  7549.262
  427,  7571.660
  428,  7594.266
  429,  7616.457
  430,  7638.652
  431,  7660.952
  432,  7683.554
  433,  7705.970
  434,  7728.096
  435,  7750.329
  436,  7772.701
  437,  7795.133
  438,  7817.678
  439,  7839.707
  440,  7862.137
  441,  7884.319
  442,  7906.965
  443,  7929.035
  444,  7951.288
  445,  7974.168
  446,  7996.413
  447,  8018.383
  448,  8040.950
  449,  8063.216
  450,  8085.388
  451,  8107.845
  452,  8130.036
  453,  8152.548
  454,  8174.877
  455,  8197.214
  456,  8219.486
  457,  8242.078
  458,  8264.295
  459,  8286.478
  460,  8309.098
  461,  8331.574
  462,  8353.734
  463,  8376.306
  464,  8398.351
  465,  8420.582
  466,  8443.304
  467,  8465.421
  468,  8487.679
  469,  8510.119
  470,  8532.353
  471,  8554.724
  472,  8576.838
  473,  8599.281
  474,  8621.530
  475,  8644.452
  476,  8666.266
  477,  8689.074
  478,  8711.229
  479,  8733.327
  480,  8756.040
  481,  8777.866
  482,  8800.338
  483,  8823.213
  484,  8845.281
  485,  8867.310
  486,  8889.731
  487,  8912.335
  488,  8934.618
  489,  8956.928
  490,  8979.111
  491,  9001.660
  492,  9024.059
  493,  9046.102
  494,  9068.663
  495,  9091.245
  496,  9113.588
  497,  9135.445
  498,  9158.030
  499,  9180.245
  500,  9202.494
  501,  9225.053
  502,  9247.233
  503,  9269.762
  504,  9292.159
  505,  9314.395
  506,  9336.861
  507,  9359.015
  508,  9381.394
  509,  9403.731
  510,  9425.992
  511,  9448.256
  512,  9470.494
  513,  9493.008
  514,  9515.324
  515,  9538.063
  516,  9559.897
  517,  9582.163
  518,  9604.486
  519,  9626.934
  520,  9649.088
  521,  9671.713
  522,  9694.042
  523,  9716.445
  524,  9738.451
  525,  9761.001
  526,  9783.309
  527,  9805.846
  528,  9827.932
  529,  9850.305
  530,  9872.803
  531,  9895.091
  532,  9917.747
  533,  9940.202
  534,  9962.245
  535,  9984.582
  536, 10007.033
  537, 10029.123
  538, 10051.739
  539, 10073.891
  540, 10096.066
  541, 10118.726
  542, 10141.094
  543, 10163.121
  544, 10185.490
  545, 10207.888
  546, 10230.522
  547, 10252.536
  548, 10275.112
  549, 10297.195
  550, 10319.645
  551, 10342.322
  552, 10364.674
  553, 10386.527
  554, 10408.930
  555, 10431.280
  556, 10453.623
  557, 10476.246
  558, 10498.237
  559, 10520.613
  560, 10543.223
  561, 10565.403
  562, 10587.501
  563, 10609.991
  564, 10632.250
  565, 10654.454
  566, 10677.121
  567, 10699.376
  568, 10721.824
  569, 10744.691
  570, 10766.491
  571, 10788.577
  572, 10811.327
  573, 10833.243
  574, 10855.823
  575, 10877.997
  576, 10900.221
  577, 10922.710
  578, 10944.951
  579, 10967.363
  580, 10989.738
  581, 11012.287
  582, 11034.602
  583, 11057.073
  584, 11079.244
  585, 11101.673
  586, 11123.942
  587, 11146.110
  588, 11157.262
  589, 11168.789
  590, 11180.508
  591, 11192.172
  592, 11213.068
  593, 11235.751
  594, 11257.803
  595, 11280.124
  596, 11302.488
  597, 11325.250
  598, 11347.113
  599, 11369.560
  600, 11392.040
  601, 11414.157
  602, 11436.437
  603, 11458.517
  604, 11481.033
  605, 11504.023
  606, 11525.553
  607, 11547.957
  608, 11570.213
  609, 11592.614
  610, 11615.079
  611, 11637.576
  612, 11659.795
  613, 11681.849
  614, 11704.231
  615, 11715.577
  616, 11727.394
  617, 11739.094
  618, 11750.863
  619, 11762.712
  620, 11782.537
  621, 11804.859
  622, 11827.125
  623, 11849.725
  624, 11872.112
  625, 11894.263
  626, 11916.570
  627, 11938.899
  628, 11961.326
  629, 11983.660
  630, 12005.866
  631, 12028.247
  632, 12039.665
  633, 12051.697
  634, 12063.680
  635, 12084.123
  636, 12106.632
  637, 12128.613
  638, 12151.152
  639, 12173.598
  640, 12195.831
  641, 12207.363
  642, 12219.173
  643, 12231.096
  644, 12251.924
  645, 12274.195
  646, 12296.144
  647, 12318.735
  648, 12341.661
  649, 12363.208
  650, 12385.698
  651, 12408.027
  652, 12430.221
  653, 12442.071
  654, 12453.823
  655, 12465.818
  656, 12486.121
  657, 12508.381
  658, 12530.870
  659, 12553.140
  660, 12575.523
  661, 12597.853
  662, 12620.109
  663, 12642.636
  664, 12664.935
  665, 12687.264
  666, 12709.562
  667, 12731.837
  668, 12754.328
  669, 12776.551
  670, 12798.755
  671, 12821.283
  672, 12843.463
  673, 12865.779
  674, 12887.990
  675, 12910.475
  676, 12932.848
  677, 12955.125
  678, 12977.542
  679, 12999.713
  680, 13021.994
  681, 13044.659
  682, 13067.041
  683, 13089.048
  684, 13111.561
  685, 13133.978
  686, 13156.103
  687, 13178.575
  688, 13200.996
  689, 13223.358
  690, 13245.520
  691, 13268.033
  692, 13290.386
  693, 13312.790
  694, 13335.104
  695, 13357.240
  696, 13379.596
  697, 13402.055
  698, 13424.157
  699, 13446.550
  700, 13468.744
  701, 13491.663
  702, 13513.727
  703, 13536.130
  704, 13558.534
  705, 13580.837
  706, 13603.134
  707, 13625.551
  708, 13647.872
  709, 13670.244
  710, 13692.693
  711, 13714.970
  712, 13737.292
  713, 13759.694
  714, 13782.322
  715, 13804.562
  716, 13826.969
  717, 13849.127
  718, 13871.641
  719, 13893.763
  720, 13916.217
  721, 13938.669
  722, 13961.167
  723, 13983.376
  724, 14005.534
  725, 14027.899
  726, 14050.204
  727, 14072.650
  728, 14095.091
  729, 14117.230
  730, 14139.811
  731, 14161.838
  732, 14184.250
  733, 14206.690
  734, 14229.006
  735, 14251.542
  736, 14273.956
  737, 14295.979
  738, 14318.650
  739, 14340.722
  740, 14363.040
  741, 14385.117
  742, 14407.996
  743, 14429.962
  744, 14452.286
  745, 14474.811
  746, 14496.999
  747, 14519.211
  748, 14541.878
  749, 14564.051
  750, 14586.428
  751, 14608.563
  752, 14630.827
  753, 14653.294
  754, 14675.556
  755, 14698.132
  756, 14720.249
  757, 14742.659
  758, 14764.891
  759, 14787.407
  760, 14798.527
  761, 14810.033
  762, 14821.758
  763, 14833.708
  764, 14845.699
  765, 14865.479
  766, 14887.799
  767, 14910.110
  768, 14932.410
  769, 14943.951
  770, 14955.028
  771, 14966.702
  772, 14978.396
  773, 14989.894
  774, 15010.797
  775, 15033.081
  776, 15055.340
  777, 15077.664
  778, 15088.808
  779, 15100.446
  780, 15111.797
  781, 15123.195
  782, 15134.763
  783, 15155.797
  784, 15178.180
  785, 15200.468
  786, 15222.913
  787, 15234.322
  788, 15245.330
  789, 15256.760
  790, 15268.088
  791, 15289.878
  792, 15312.062
  793, 15334.567
  794, 15357.085
  795, 15367.899
  796, 15379.236
  797, 15390.608
  798, 15401.807
  799, 15413.184
  800, 15435.188
  801, 15457.383
  802, 15479.938
  803, 15502.032
  804, 15513.295
  805, 15524.723
  806, 15535.620
  807, 15546.726
  808, 15569.161
  809, 15580.206
  810, 15591.335
  811, 15602.685
  812, 15624.946
  813, 15647.132
  814, 15669.590
  815, 15681.142
  816, 15692.071
  817, 15703.445
  818, 15725.330
  819, 15747.731
  820, 15770.107
  821, 15781.391
  822, 15792.482
  823, 15803.523
  824, 15814.617
  825, 15825.927
  826, 15836.947
  827, 15848.304
  828, 15859.548
  829, 15870.538
  830, 15881.761
  831, 15893.414
  832, 15904.126
  833, 15915.523
  834, 15926.610
  835, 15937.705
  836, 15948.927
  837, 15971.270
  838, 15993.419
  839, 16015.574
  840, 16038.340
  841, 16049.320
  842, 16060.488
  843, 16071.738
  844, 16094.243
  845, 16116.331
  846, 16138.602
  847, 16149.708
  848, 16161.195
  849, 16172.208
  850, 16183.343
  851, 16194.548
  852, 16205.812
  853, 16216.807
  854, 16227.885
  855, 16239.265
  856, 16250.315
  857, 16261.597
  858, 16272.671
  859, 16283.801
  860, 16295.109
  861, 16306.186
  862, 16317.467
  863, 16339.897
  864, 16362.160
  865, 16384.486
  866, 16406.992
  867, 16429.248
  868, 16440.335
  869, 16451.470
  870, 16462.686
  871, 16474.022
  872, 16484.841
  873, 16496.116
  874, 16507.340
  875, 16518.553
  876, 16529.866
  877, 16541.091
  878, 16552.230
  879, 16563.651
  880, 16574.984
  881, 16586.185
  882, 16597.552
  883, 16619.046
  884, 16641.325
  885, 16663.492
  886, 16686.113
  887, 16697.102
  888, 16708.318
  889, 16719.829
  890, 16731.026
  891, 16742.465
  892, 16753.752
  893, 16765.199
  894, 16786.459
  895, 16808.800
  896, 16831.317
  897, 16853.570
  898, 16864.653
  899, 16875.910
  900, 16887.027
  901, 16898.199
  902, 16909.868
  903, 16920.754
  904, 16932.083
  905, 16954.057
  906, 16976.515
  907, 16998.938
  908, 17021.149
  909, 17032.366
  910, 17043.392
  911, 17054.545
  912, 17065.871
  913, 17077.127
  914, 17088.413
  915, 17099.887
  916, 17111.364
  917, 17133.061
  918, 17155.077
  919, 17177.712
  920, 17199.926
  921, 17222.249
  922, 17233.708
  923, 17244.633
  924, 17256.106
  925, 17267.806
  926, 17279.416
  927, 17300.343
  928, 17323.019
  929, 17344.643
  930, 17366.925
  931, 17389.568
  932, 17411.770
  933, 17433.794
  934, 17456.137
  935, 17478.623
  936, 17500.954
  937, 17523.664
  938, 17545.493
  939, 17567.854
  940, 17590.151
  941, 17612.338
  942, 17634.797
  943, 17657.261
  944, 17679.408
  945, 17701.690
  946, 17724.238
  947, 17746.419
  948, 17768.670
  949, 17790.966
  950, 17813.302
  951, 17835.758
  952, 17857.947
  953, 17880.363
  954, 17902.762
  955, 17925.179
  956, 17947.271
  957, 17969.644
  958, 17992.049
  959, 18014.342
  960, 18036.837
  961, 18059.220
  962, 18081.586
  963, 18103.987
  964, 18126.851
  965, 18148.937
  966, 18170.998
  967, 18193.358
  968, 18215.954
  969, 18237.992
  970, 18260.682
  971, 18283.105
  972, 18305.513
  973, 18327.579
  974, 18349.861
  975, 18372.007
  976, 18394.595
  977, 18416.518
  978, 18440.046
  979, 18461.379
  980, 18483.638
  981, 18506.334
  982, 18528.420
  983, 18539.511
  984, 18551.259
  985, 18563.031
  986, 18574.832
  987, 18586.345
  988, 18606.692
  989, 18628.938
  990, 18651.301
  991, 18674.018
  992, 18695.845
  993, 18707.427
  994, 18718.379
  995, 18740.575
  996, 18751.902
  997, 18763.236
  998, 18785.214
  999, 18807.666
 1000, 18829.730
 1001, 18852.188
 1002, 18863.452
 1003, 18874.745
 1004, 18885.997
 1005, 18897.519
 1006, 18908.951
 1007, 18920.273
 1008, 18941.750
 1009, 18952.859
 1010, 18964.145
 1011, 18986.278
 1012, 19008.638
 1013, 19031.141
 1014, 19053.267
 1015, 19064.271
 1016, 19075.689
 1017, 19086.863
 1018, 19098.042
 1019, 19109.471
 1020, 19121.019
 1021, 19132.458
 1022, 19153.736
 1023, 19176.204
 1024, 19198.439
 1025, 19220.963
 1026, 19232.138
 1027, 19243.144
 1028, 19254.262
 1029, 19265.416
 1030, 19276.771
 1031, 19287.877
 1032, 19299.149
 1033, 19310.567
 1034, 19321.690
 1035, 19333.059
 1036, 19355.665
 1037, 19378.073
 1038, 19400.376
 1039, 19422.729
 1040, 19434.052
 1041, 19445.098
 1042, 19456.359
 1043, 19467.722
 1044, 19478.621
 1045, 19490.102
 1046, 19501.127
 1047, 19512.485
 1048, 19523.888
 1049, 19535.112
 1050, 19557.084
 1051, 19579.162
 1052, 19601.757
 1053, 19624.097
 1054, 19635.075
 1055, 19646.332
 1056, 19657.872
 1057, 19669.386
 1058, 19681.050
 1059, 19702.304
 1060, 19724.850
 1061, 19746.916
 1062, 19769.454
 1063, 19791.474
 1064, 19814.153
 1065, 19825.299
 1066, 19836.451
 1067, 19848.142
 1068, 19859.829
 1069, 19871.260
 1070, 19892.140
 1071, 19914.231
 1072, 19936.703
 1073, 19958.996
 1074, 19970.170
 1075, 19981.375
 1076, 19992.914
 1077, 20004.294
 1078, 20015.841
 1079, 20037.027
 1080, 20059.469
 1081, 20082.241
 1082, 20104.299
 1083, 20115.760
 1084, 20126.692
 1085, 20138.005
 1086, 20160.162
 1087, 20182.610
 1088, 20204.897
 1089, 20227.102
 1090, 20238.307
 1091, 20249.395
 1092, 20260.995
 1093, 20272.441
 1094, 20284.006
 1095, 20305.451
 1096, 20327.397
 1097, 20349.941
 1098, 20372.211
 1099, 20383.590
 1100, 20394.648
 1101, 20406.031
 1102, 20417.601
 1103, 20429.111
 1104, 20450.342
 1105, 20472.974
 1106, 20495.199
 1107, 20517.271
 1108, 20528.400
 1109, 20539.905
 1110, 20551.355
 1111, 20563.026
 1112, 20574.654
 1113, 20586.142
 1114, 20606.918
 1115, 20629.217
 1116, 20651.512
 1117, 20673.916
 1118, 20696.330
 1119, 20707.442
 1120, 20718.936
 1121, 20730.544
 1122, 20742.141
 1123, 20763.176
 1124, 20786.013
 1125, 20808.030
 1126, 20830.363
 1127, 20852.540
 1128, 20875.151
 1129, 20897.145
 1130, 20919.542
 1131, 20942.096
 1132, 20964.245
 1133, 20975.429
 1134, 20986.853
 1135, 20998.650
 1136, 21010.467
 1137, 21031.292
 1138, 21053.627
 1139, 21076.429
 1140, 21098.328
 1141, 21120.636
 1142, 21142.855
 1143, 21165.204
 1144, 21187.487
 1145, 21198.833
 1146, 21210.273
 1147, 21232.400
 1148, 21243.685
 1149, 21254.925
 1150, 21276.927
 1151, 21299.270
 1152, 21321.852
 1153, 21344.078
 1154, 21366.203
 1155, 21389.065
 1156, 21410.894
 1157, 21433.384
 1158, 21455.619
 1159, 21478.028
 1160, 21489.115
 1161, 21500.740
 1162, 21512.316
 1163, 21523.903
 1164, 21544.938
 1165, 21567.292
 1166, 21589.679
 1167, 21612.120
 1168, 21623.302
 1169, 21634.482
 1170, 21646.038
 1171, 21657.572
 1172, 21669.064
 1173, 21690.320
 1174, 21712.686
 1175, 21734.800
